# Monte Carlo simulation results
# System: H(Heisenberg) I(Ising) 
# Lattice: 8³
# Columns: T Energy/spin Magnetization |Magnetization| SpecificHeat Susceptibility AcceptanceRate Mag[H] Mag[I]
6.00000000   -0.36704960   -0.00564330    1.00000000    0.00007207     0.00052475      80.073979    -0.00186278    -0.00942383
5.90000000   -0.37667942    0.00010421    1.00000000    0.00008361     0.00061918      79.674966     0.00011076     0.00009766
5.80000000   -0.39189762   -0.00308286    1.00000000    0.00008528     0.00066145      79.270718     0.00164679    -0.00781250
5.70000000   -0.39627093    0.00125736    1.00000000    0.00009344     0.00071533      78.853257     0.00080573     0.00170898
5.60000000   -0.40468463   -0.00264945    1.00000000    0.00010383     0.00069618      78.405173     0.00069720    -0.00599609
5.50000000   -0.41712269    0.00032506    1.00000000    0.00009316     0.00086446      77.935264     0.00223215    -0.00158203
5.40000000   -0.43154501    0.00237926    1.00000000    0.00010884     0.00092515      77.447153    -0.00079811     0.00555664
5.30000000   -0.43968283    0.00419208    1.00000000    0.00012442     0.00114114      76.905840     0.00046423     0.00791992
5.20000000   -0.46024660   -0.00018092    1.00000000    0.00012737     0.00125269      76.313738    -0.00132863     0.00096680
5.10000000   -0.46990474    0.00342920    1.00000000    0.00016530     0.00167300      75.688118    -0.00026074     0.00711914
5.00000000   -0.48473128    0.00251576    1.00000000    0.00016305     0.00170436      74.926479     0.00183815     0.00319336
4.90000000   -0.49977857    0.00013229    1.00000000    0.00018867     0.00216111      74.225369     0.00031341    -0.00004883
4.80000000   -0.52979515   -0.00553170    1.00000000    0.00029256     0.00320130      73.219065     0.00115340    -0.01221680
4.70000000   -0.56113368    0.00061864    1.00000000    0.00036804     0.00428798      71.908691    -0.00025686     0.00149414
4.60000000   -0.61560345   -0.00522021    1.00000000    0.00050822     0.00677795      70.461145     0.00094631    -0.01138672
4.50000000   -0.67058204    0.02351740    1.00000000    0.00063584     0.00944908      68.528030     0.00206411     0.04497070
4.40000000   -0.75458717   -0.10139355    1.00000000    0.00096846     0.01276093      65.826411     0.00159767    -0.20438477
4.30000000   -0.84733626    0.18969578    1.00000000    0.00084795     0.01230793      63.183867     0.00320016     0.37619141
4.20000000   -0.93541945   -0.05576286    1.00000000    0.00081517     0.02551197      60.700498     0.00129655    -0.11282227
4.10000000   -1.02068828   -0.35447628    1.00000000    0.00075897     0.00046511      58.549395     0.00216072    -0.71111328
4.00000000   -1.07760206   -0.37632283    1.00000000    0.00064124     0.00029333      56.725015    -0.00245035    -0.75019531
3.90000000   -1.15317310   -0.39544562    1.00000000    0.00051563     0.00025514      55.070225    -0.00037366    -0.79051758
3.80000000   -1.19453882   -0.40579369    1.00000000    0.00057432     0.00023441      53.598450     0.00087355    -0.81246094
3.70000000   -1.24777616   -0.41964811    1.00000000    0.00048812     0.00020615      52.306665    -0.00136654    -0.83792969
3.60000000   -1.30300580   -0.43221526    1.00000000    0.00044652     0.00018991      51.106536    -0.00303404    -0.86139648
3.50000000   -1.34889399   -0.44122146    1.00000000    0.00037627     0.00015310      50.038518    -0.00140776    -0.88103516
3.40000000   -1.38780911   -0.44772883    1.00000000    0.00046120     0.00019101      49.070742     0.00083139    -0.89628906
3.30000000   -1.42702016   -0.45495807    1.00000000    0.00033521     0.00015378      48.133479     0.00073816    -0.91065430
3.20000000   -1.46330562   -0.46165515    1.00000000    0.00032780     0.00016802      47.311243     0.00151391    -0.92482422
3.10000000   -1.49385353   -0.46800508    1.00000000    0.00030054     0.00016423      46.527327    -0.00072696    -0.93528320
3.00000000   -1.53045692   -0.47412704    1.00000000    0.00029125     0.00016398      45.804614    -0.00153534    -0.94671875
2.90000000   -1.55672375   -0.47803090    1.00000000    0.00026396     0.00016462      45.127556    -0.00129617    -0.95476562
2.80000000   -1.58265500   -0.47968207    1.00000000    0.00026192     0.00021613      44.484531     0.00260851    -0.96197266
2.70000000   -1.60738342   -0.48379419    1.00000000    0.00024889     0.00017860      43.881040     0.00077099    -0.96835938
2.60000000   -1.63481454   -0.48746345    1.00000000    0.00021464     0.00021712      43.274629     0.00025864    -0.97518555
2.50000000   -1.65516882   -0.49088998    1.00000000    0.00022558     0.00024005      42.693049    -0.00286395    -0.97891602
2.40000000   -1.67885330   -0.49263746    1.00000000    0.00019373     0.00026232      42.097544    -0.00171046    -0.98356445
2.30000000   -1.69809025   -0.49400824    1.00000000    0.00018724     0.00031834      41.517991    -0.00123914    -0.98677734
2.20000000   -1.72066444   -0.49432608    1.00000000    0.00022006     0.00035328      40.930872     0.00109394    -0.98974609
2.10000000   -1.74500263   -0.49796375    1.00000000    0.00020812     0.00041007      40.307981    -0.00304665    -0.99288086
2.00000000   -1.76680989   -0.49813330    1.00000000    0.00021590     0.00060524      39.643967    -0.00145215    -0.99481445
1.90000000   -1.79331919   -0.49771167    1.00000000    0.00026507     0.00078486      38.936777     0.00080714    -0.99623047
1.80000000   -1.82029561   -0.50218316    1.00000000    0.00026797     0.00106568      38.160479    -0.00707139    -0.99729492
1.70000000   -1.85419743   -0.50352868    1.00000000    0.00036167     0.00173625      37.204070    -0.00900072    -0.99805664
1.60000000   -1.90068909   -0.49114510    1.00000000    0.00067971     0.00420059      36.041614     0.01652816    -0.99881836
1.50000000   -1.98955042   -0.50603369    1.00000000    0.00108869     0.01480534      34.125459    -0.01281933    -0.99924805
1.40000000   -2.10952831   -0.27571459    1.00000000    0.00109712     0.00081092      31.775557     0.44815090    -0.99958008
1.30000000   -2.21323543   -0.22667462    1.00000000    0.00089309     0.00043795      29.803103     0.54651403    -0.99986328
1.20000000   -2.30350537   -0.18963982    1.00000000    0.00080660     0.00023016      28.064851     0.62061295    -0.99989258
1.10000000   -2.38030703   -0.16540172    1.00000000    0.00070252     0.00018892      26.485088     0.66915750    -0.99996094
1.00000000   -2.45341131   -0.14251667    1.00000000    0.00068682     0.00015140      24.932908     0.71493736    -0.99997070
0.90000000   -2.51832774   -0.12383114    1.00000000    0.00067652     0.00015548      23.389500     0.75233771    -1.00000000
0.80000000   -2.57858321   -0.10529859    1.00000000    0.00063876     0.00010918      21.834275     0.78940282    -1.00000000
0.70000000   -2.63803792   -0.08986652    1.00000000    0.00049041     0.00009983      20.189893     0.82026696    -1.00000000
0.60000000   -2.69293139   -0.07526908    1.00000000    0.00048625     0.00006632      18.483357     0.84946185    -1.00000000
0.50000000   -2.74732137   -0.06249648    1.00000000    0.00053494     0.00009983      16.651421     0.87500704    -1.00000000
0.40000000   -2.79989238   -0.04794310    1.00000000    0.00049308     0.00003757      14.680254     0.90411381    -1.00000000
0.30000000   -2.84999805   -0.03700024    1.00000000    0.00051558     0.00005292      12.506440     0.92599952    -1.00000000
0.20000000   -2.90083315   -0.02570300    1.00000000    0.00044669     0.00006344      10.038076     0.94859401    -1.00000000
